##TITLE= Mattson Instruments
##JCAMP_DX= 4.24
##OWNER= 
##ORIGIN= 
##DATA TYPE= INFRARED SPECTRUM
##YUNITS= % Transmittance
##XUNITS= 1/CM
##FIRSTX= 401.12365566
##FIRSTY= 79.10866546
##LASTX= 3999.66568195
##XFACTOR= 1.00000000
##YFACTOR= 0.00074481
##MINY= 37.48657608
##MAXY= 86.29724884
##DELTAX= 3.85695822
##NPOINTS= 934
##XYDATA= (X++(Y..Y))
401.12  106212 108579 109392 108306 106438 105571 
424.26  106269 107437 108074 108303 108452 108416 
447.40  108086 107474 106608 105851 105806 106541 
470.54  107463 108067 108308 108336 108104 107207 
493.69  105515 104039 104093 105435 106565 106589 
516.83  105712 104430 103271 102814 103065 103244 
539.97  102781 101939 101094 100158 99057 98051 
563.11  97414 97275 97652 98284 98728 98959 
586.25  99435 100284 100991 101181 101227 101685 
609.39  102536 103384 104109 104821 105436 105773 
632.54  105812 105467 104483 103200 102923 104524 
655.68  106951 108236 108071 108110 109400 111091 
678.82  112100 112527 112894 113122 112958 112740 
701.96  113042 113844 114617 115046 115236 115326 
725.10  115300 115132 114738 113910 112720 111845 
748.24  111966 112855 113538 113391 112676 111907 
771.39  111147 110360 110117 111078 112784 113980 
794.53  114219 114146 114291 114564 114794 114952 
817.67  114983 114817 114417 113906 113696 113953 
840.81  114160 113932 113443 112107 108639 103904 
863.95  101421 103121 106719 108820 108482 106561 
887.10  103703 100372 97852 97973 101266 105586 
910.24  107741 106903 105260 104942 105657 105758 
933.38  104453 102444 101092 101375 103372 106228 
956.52  108539 109362 109170 109219 109842 110143 
979.66  109529 108703 108758 109548 109443 107322 
1002.80  104391 102704 102311 101573 99800 97734 
1025.95  96180 95585 95724 95267 93489 91916 
1049.09  92056 92965 93688 95690 99877 103860 
1072.23  105112 104453 103964 103637 102192 99507 
1095.37  96787 94948 93622 92112 90871 91400 
1118.51  94241 97432 98399 97461 97647 100610 
1141.65  104660 107449 108556 108686 108155 107127 
1164.80  106231 106099 106625 107058 106867 106282 
1187.94  105529 103944 101078 98410 98170 100166 
1211.08  101570 100496 98183 96716 95936 94147 
1234.22  91487 90496 92715 96632 99905 101787 
1257.36  102237 100726 97506 94352 92681 92280 
1280.51  92591 93810 96069 98640 100562 101642 
1303.65  102412 103070 102888 101320 99395 98864 
1326.79  99951 101025 100572 98614 96405 95353 
1349.93  95828 96739 96890 96550 96654 97133 
1373.07  97364 97384 97314 96689 95552 95010 
1396.21  95692 96806 97289 96937 96210 95611 
1419.36  95123 94047 92022 90137 90054 91958 
1442.50  94125 94687 93501 92318 92983 95328 
1465.64  97580 98990 100743 103714 106717 108188 
1488.78  108415 108683 108989 108411 107352 107289 
1511.92  108199 108495 107897 108007 109259 109649 
1535.06  107892 105945 106426 108421 108570 106153 
1558.21  104315 105370 107439 107789 106785 106405 
1581.35  106847 106763 105556 103597 100862 96697 
1604.49  91248 86424 84103 83155 80234 74381 
1627.63  68215 63472 58775 53475 50330 52372 
1650.77  59518 69151 78281 84981 89267 92664 
1673.91  96023 98602 100065 101292 101975 99869 
1697.06  94178 87556 82932 80610 80495 84020 
1720.20  91173 98327 102116 103364 104915 107325 
1743.34  109088 109717 110173 111035 111871 112105 
1766.48  111739 111417 111835 112850 113553 113459 
1789.62  113059 113018 113422 113959 114362 114591 
1812.77  114786 114940 114802 114410 114300 114681 
1835.91  114968 114731 114453 114739 115386 115790 
1859.05  115724 115390 115116 115179 115552 115864 
1882.19  115831 115611 115507 115570 115655 115679 
1905.33  115646 115550 115393 115264 115299 115514 
1928.47  115742 115797 115671 115519 115484 115569 
1951.62  115676 115710 115670 115621 115609 115634 
1974.76  115673 115685 115628 115521 115457 115491 
1997.90  115575 115629 115636 115621 115600 115580 
2021.04  115570 115578 115590 115582 115552 115521 
2044.18  115509 115517 115527 115521 115496 115470 
2067.32  115461 115469 115480 115482 115472 115456 
2090.47  115435 115411 115391 115374 115354 115332 
2113.61  115314 115284 115221 115134 115054 115001 
2136.75  114974 114967 114964 114958 114949 114939 
2159.89  114925 114903 114880 114863 114847 114822 
2183.03  114785 114732 114667 114602 114569 114581 
2206.18  114618 114655 114686 114708 114717 114715 
2229.32  114711 114709 114696 114666 114627 114600 
2252.46  114592 114587 114572 114538 114482 114416 
2275.60  114362 114340 114319 114297 114275 114254 
2298.74  114232 114211 114189 114168 114146 114125 
2321.88  114103 114082 114060 114039 114017 113996 
2345.03  113974 113953 113931 113910 113888 113867 
2368.17  113845 113824 113802 113781 113759 113737 
2391.31  113716 113837 113904 113954 113983 113993 
2414.45  114005 114015 114018 114027 114040 114043 
2437.59  114042 114046 114043 114019 113986 113960 
2460.73  113947 113938 113923 113894 113860 113829 
2483.88  113794 113746 113680 113600 113523 113465 
2507.02  113423 113388 113363 113349 113342 113346 
2530.16  113366 113390 113389 113354 113294 113229 
2553.30  113173 113141 113135 113137 113118 113070 
2576.44  113008 112948 112887 112818 112731 112625 
2599.58  112507 112400 112317 112253 112199 112148 
2622.73  112097 112056 112036 112032 112022 111985 
2645.87  111926 111872 111849 111841 111808 111735 
2669.01  111639 111538 111431 111307 111152 110957 
2692.15  110743 110555 110423 110330 110236 110133 
2715.29  110052 110030 110061 110102 110123 110131 
2738.44  110148 110187 110246 110314 110377 110428 
2761.58  110459 110465 110450 110416 110370 110326 
2784.72  110272 110158 109971 109735 109445 109096 
2807.86  108699 108127 107146 105856 104760 104096 
2831.00  103533 102837 102206 101611 100569 99015 
2854.14  97628 96870 96401 95798 95125 94583 
2877.29  94204 93996 93867 93479 92605 91352 
2900.43  89677 87317 84791 83542 84171 85300 
2923.57  85222 84013 83021 82964 83523 84305 
2946.71  85404 87161 89551 91640 92174 91310 
2969.85  91059 93105 96865 100539 103256 105209 
2992.99  106483 106892 106686 106463 106459 106514 
3016.14  106646 107119 107963 108835 109438 109759 
3039.28  109910 109966 110010 110126 110310 110488 
3062.42  110607 110660 110672 110685 110708 110702 
3085.56  110636 110534 110433 110347 110273 110211 
3108.70  110159 110107 110027 109893 109722 109569 
3131.85  109460 109354 109211 109052 108907 108764 
3154.99  108586 108387 108199 108017 107807 107573 
3178.13  107344 107132 106910 106650 106349 106033 
3201.27  105736 105456 105166 104849 104501 104110 
3224.41  103655 103141 102593 102026 101444 100870 
3247.55  100330 99818 99288 98699 98059 97406 
3270.70  96772 96171 95607 95070 94548 94052 
3293.84  93602 93197 92816 92449 92087 91718 
3316.98  91329 90909 90446 89930 89368 88769 
3340.12  88131 87433 86657 85797 84860 83871 
3363.26  82848 81779 80617 79336 77963 76532 
3386.40  75034 73465 71872 70316 68841 67498 
3409.55  66368 65518 64951 64621 64465 64413 
3432.69  64407 64445 64615 65061 65881 67073 
3455.83  68577 70322 72225 74153 75964 77602 
3478.97  79156 80825 82767 84953 87193 89289 
3502.11  91176 92904 94519 95988 97242 98290 
3525.25  99253 100240 101216 102053 102672 103139 
3548.40  103630 104230 104750 104939 104946 105268 
3571.54  106059 106832 107060 106829 106668 106926 
3594.68  107475 107930 108001 107700 107366 107406 
3617.82  107757 107830 107439 107435 108489 109679 
3640.96  109530 108173 107208 107663 109030 110017 
3664.11  109581 107897 106606 107061 108399 108822 
3687.25  108323 108389 109397 110120 109765 108934 
3710.39  108539 108791 109273 109352 108678 107633 
3733.53  106921 106482 105618 104492 104410 105980 
3756.67  108042 109196 109429 109578 109953 110224 
3779.81  110266 110372 110579 110315 109185 107862 
3802.96  107478 108047 108337 107672 107012 107496 
3826.10  108461 108279 107064 106711 107643 107831 
3849.24  106333 105214 106149 107645 107831 107421 
3872.38  107831 108595 108632 108300 108471 108845 
3895.52  108622 108072 108188 109094 109851 109893 
3918.66  109679 109722 109890 109967 110050 110158 
3941.81  110144 110083 110168 110335 110417 110440 
3964.95  110481 110514 110522 110542 110572 110575 
3988.09  110553 110539 110545 110553 
##END= 
